# Voltage (V), Field (mT), Current (A), Field (mT)
-1.000000000000000000e+01, -3.760000000000000142e+01, 3.997280890480900073e+00, 3.760000000000000142e+01
-9.899497487437185939e+00, -3.721999999999999886e+01, 3.957134635874412609e+00, 3.721999999999999886e+01
-9.798994974874371877e+00, -3.684000000000000341e+01, 3.916893194402053080e+00, 3.684000000000000341e+01
-9.698492462311557816e+00, -3.646999999999999886e+01, 3.876611787114415009e+00, 3.646999999999999886e+01
-9.597989949748743754e+00, -3.609000000000000341e+01, 3.836410848491983216e+00, 3.609000000000000341e+01
-9.497487437185929693e+00, -3.571000000000000085e+01, 3.796261979061625880e+00, 3.571000000000000085e+01
-9.396984924623115631e+00, -3.532999999999999829e+01, 3.756195155907088079e+00, 3.532999999999999829e+01
-9.296482412060301570e+00, -3.496000000000000085e+01, 3.715941636504001888e+00, 3.496000000000000085e+01
-9.195979899497487509e+00, -3.457900000000000063e+01, 3.675802769999098274e+00, 3.457900000000000063e+01
-9.095477386934673447e+00, -3.420000000000000284e+01, 3.635571871839837321e+00, 3.420000000000000284e+01
-8.994974874371859386e+00, -3.382000000000000028e+01, 3.595372531944743155e+00, 3.382000000000000028e+01
-8.894472361809045324e+00, -3.342999999999999972e+01, 3.555307303606669578e+00, 3.342999999999999972e+01
-8.793969849246231263e+00, -3.307000000000000028e+01, 3.515002261488860746e+00, 3.307000000000000028e+01
-8.693467336683417201e+00, -3.267999999999999972e+01, 3.474900751544920841e+00, 3.267999999999999972e+01
-8.592964824120603140e+00, -3.231000000000000227e+01, 3.434659351521587300e+00, 3.231000000000000227e+01
-8.492462311557789079e+00, -3.192999999999999972e+01, 3.394483168036042997e+00, 3.192999999999999972e+01
-8.391959798994975017e+00, -3.155000000000000071e+01, 3.354324342814812621e+00, 3.155000000000000071e+01
-8.291457286432160956e+00, -3.117999999999999972e+01, 3.314131336198715250e+00, 3.117999999999999972e+01
-8.190954773869346894e+00, -3.080000000000000071e+01, 3.274044041357557777e+00, 3.080000000000000071e+01
-8.090452261306532833e+00, -3.042000000000000171e+01, 3.233748487392356541e+00, 3.042000000000000171e+01
-7.989949748743718771e+00, -3.003999999999999915e+01, 3.193624384386827941e+00, 3.003999999999999915e+01
-7.889447236180904710e+00, -2.966000000000000014e+01, 3.153413508379344421e+00, 2.966000000000000014e+01
-7.788944723618090649e+00, -2.928000000000000114e+01, 3.113324121353146179e+00, 2.928000000000000114e+01
-7.688442211055276587e+00, -2.889999999999999858e+01, 3.073167945974116577e+00, 2.889999999999999858e+01
-7.587939698492462526e+00, -2.851999999999999957e+01, 3.032974959312004781e+00, 2.851999999999999957e+01
-7.487437185929648464e+00, -2.814999999999999858e+01, 2.992750420467019445e+00, 2.814999999999999858e+01
-7.386934673366834403e+00, -2.776999999999999957e+01, 2.952631592960449858e+00, 2.776999999999999957e+01
-7.286432160804020342e+00, -2.739000000000000057e+01, 2.912413896177724837e+00, 2.739000000000000057e+01
-7.185929648241206280e+00, -2.701000000000000156e+01, 2.872177794926902283e+00, 2.701000000000000156e+01
-7.085427135678392219e+00, -2.664000000000000057e+01, 2.832073174635340251e+00, 2.664000000000000057e+01
-6.984924623115578157e+00, -2.626000000000000156e+01, 2.791948046112893156e+00, 2.626000000000000156e+01
-6.884422110552764096e+00, -2.587999999999999901e+01, 2.751768224913721639e+00, 2.587999999999999901e+01
-6.783919597989950034e+00, -2.550000000000000000e+01, 2.711558428950324728e+00, 2.550000000000000000e+01
-6.683417085427135973e+00, -2.512000000000000099e+01, 2.671294992058245832e+00, 2.512000000000000099e+01
-6.582914572864321912e+00, -2.473999999999999844e+01, 2.631239819263951230e+00, 2.473999999999999844e+01
-6.482412060301507850e+00, -2.437000000000000099e+01, 2.591008467528689518e+00, 2.437000000000000099e+01
-6.381909547738693789e+00, -2.398999999999999844e+01, 2.550819716944707771e+00, 2.398999999999999844e+01
-6.281407035175879727e+00, -2.360999999999999943e+01, 2.510711959157779116e+00, 2.360999999999999943e+01
-6.180904522613065666e+00, -2.323000000000000043e+01, 2.470658898424058503e+00, 2.323000000000000043e+01
-6.080402010050251604e+00, -2.285999999999999943e+01, 2.430343408756200141e+00, 2.285999999999999943e+01
-5.979899497487436655e+00, -2.248000000000000043e+01, 2.390205153935960780e+00, 2.248000000000000043e+01
-5.879396984924622593e+00, -2.210000000000000142e+01, 2.349929637556469775e+00, 2.210000000000000142e+01
-5.778894472361808532e+00, -2.171999999999999886e+01, 2.309795593784993439e+00, 2.171999999999999886e+01
-5.678391959798994471e+00, -2.133999999999999986e+01, 2.269713091336827304e+00, 2.133999999999999986e+01
-5.577889447236180409e+00, -2.096000000000000085e+01, 2.229590095289552654e+00, 2.096000000000000085e+01
-5.477386934673366348e+00, -2.058999999999999986e+01, 2.189270409288295305e+00, 2.058999999999999986e+01
-5.376884422110552286e+00, -2.021000000000000085e+01, 2.149045915295658471e+00, 2.021000000000000085e+01
-5.276381909547738225e+00, -1.982999999999999829e+01, 2.108851399982036412e+00, 1.982999999999999829e+01
-5.175879396984924163e+00, -1.946000000000000085e+01, 2.068765750313198648e+00, 1.946000000000000085e+01
-5.075376884422110102e+00, -1.907999999999999829e+01, 2.028717442002956783e+00, 1.907999999999999829e+01
-4.974874371859296041e+00, -1.869999999999999929e+01, 1.988429318632965126e+00, 1.869999999999999929e+01
-4.874371859296481979e+00, -1.830999999999999872e+01, 1.948094916308856561e+00, 1.830999999999999872e+01
-4.773869346733667918e+00, -1.794000000000000128e+01, 1.908045034499102899e+00, 1.794000000000000128e+01
-4.673366834170853856e+00, -1.755999999999999872e+01, 1.867888919503775558e+00, 1.755999999999999872e+01
-4.572864321608039795e+00, -1.717999999999999972e+01, 1.827720709773358543e+00, 1.717999999999999972e+01
-4.472361809045225733e+00, -1.680000000000000071e+01, 1.787525153774798259e+00, 1.680000000000000071e+01
-4.371859296482411672e+00, -1.642999999999999972e+01, 1.747421633783947659e+00, 1.642999999999999972e+01
-4.271356783919597611e+00, -1.605000000000000071e+01, 1.707147193097814597e+00, 1.605000000000000071e+01
-4.170854271356783549e+00, -1.566999999999999993e+01, 1.667000024512810485e+00, 1.566999999999999993e+01
-4.070351758793969488e+00, -1.528999999999999915e+01, 1.626787643715115639e+00, 1.528999999999999915e+01
-3.969849246231155426e+00, -1.491000000000000014e+01, 1.586662039592527051e+00, 1.491000000000000014e+01
-3.869346733668341365e+00, -1.453999999999999915e+01, 1.546431253757342139e+00, 1.453999999999999915e+01
-3.768844221105527303e+00, -1.416000000000000014e+01, 1.506384012533172889e+00, 1.416000000000000014e+01
-3.668341708542713242e+00, -1.377999999999999936e+01, 1.466160591217392728e+00, 1.377999999999999936e+01
-3.567839195979899181e+00, -1.340000000000000036e+01, 1.425940852091062361e+00, 1.340000000000000036e+01
-3.467336683417085119e+00, -1.301999999999999957e+01, 1.385737942936068112e+00, 1.301999999999999957e+01
-3.366834170854271058e+00, -1.264000000000000057e+01, 1.345567641099398637e+00, 1.264000000000000057e+01
-3.266331658291456996e+00, -1.225999999999999979e+01, 1.305413643222911979e+00, 1.225999999999999979e+01
-3.165829145728642935e+00, -1.189000000000000057e+01, 1.265319600051816318e+00, 1.189000000000000057e+01
-3.065326633165828873e+00, -1.150999999999999979e+01, 1.225039384172399437e+00, 1.150999999999999979e+01
-2.964824120603014812e+00, -1.113000000000000078e+01, 1.184890121181655598e+00, 1.113000000000000078e+01
-2.864321608040200751e+00, -1.075000000000000000e+01, 1.144748747348173001e+00, 1.075000000000000000e+01
-2.763819095477386689e+00, -1.038000000000000078e+01, 1.104567404527089236e+00, 1.038000000000000078e+01
-2.663316582914572628e+00, -9.990000000000000213e+00, 1.064375543808070423e+00, 9.990000000000000213e+00
-2.562814070351758566e+00, -9.619999999999999218e+00, 1.024285710556504414e+00, 9.619999999999999218e+00
-2.462311557788944505e+00, -9.240000000000000213e+00, 9.839166176950788767e-01, 9.240000000000000213e+00
-2.361809045226130443e+00, -8.859999999999999432e+00, 9.437389574397649916e-01, 8.859999999999999432e+00
-2.261306532663316382e+00, -8.480000000000000426e+00, 9.035970594513920151e-01, 8.480000000000000426e+00
-2.160804020100502321e+00, -8.109999999999999432e+00, 8.634698871564682188e-01, 8.109999999999999432e+00
-2.060301507537688259e+00, -7.719999999999999751e+00, 8.234005653843200490e-01, 7.719999999999999751e+00
-1.959798994974873310e+00, -7.360000000000000320e+00, 7.831797806596423328e-01, 7.360000000000000320e+00
-1.859296482412059248e+00, -6.969999999999999751e+00, 7.428501318985154533e-01, 6.969999999999999751e+00
-1.758793969849245187e+00, -6.589999999999999858e+00, 7.027082340612721412e-01, 6.589999999999999858e+00
-1.658291457286431125e+00, -6.219999999999999751e+00, 6.625915799417416707e-01, 6.219999999999999751e+00
-1.557788944723617064e+00, -5.839999999999999858e+00, 6.224959621874748272e-01, 5.839999999999999858e+00
-1.457286432160803002e+00, -5.459999999999999964e+00, 5.823908777889165167e-01, 5.459999999999999964e+00
-1.356783919597988941e+00, -5.080000000000000071e+00, 5.420770056154761152e-01, 5.080000000000000071e+00
-1.256281407035174880e+00, -4.700000000000000178e+00, 5.018036284484236331e-01, 4.700000000000000178e+00
-1.155778894472360818e+00, -4.320000000000000284e+00, 4.616848693956160377e-01, 4.320000000000000284e+00
-1.055276381909546757e+00, -3.950000000000000178e+00, 4.215271923700978363e-01, 3.950000000000000178e+00
-9.547738693467326954e-01, -3.560000000000000053e+00, 3.814694383993681992e-01, 3.560000000000000053e+00
-8.542713567839186339e-01, -3.189999999999999947e+00, 3.412286661513213026e-01, 3.189999999999999947e+00
-7.537688442211045725e-01, -2.810000000000000053e+00, 3.010510029403000165e-01, 2.810000000000000053e+00
-6.532663316582905111e-01, -2.430000000000000160e+00, 2.607571123231570698e-01, 2.430000000000000160e+00
-5.527638190954764497e-01, -2.049999999999999822e+00, 2.206394019851768695e-01, 2.049999999999999822e+00
-4.522613065326623882e-01, -1.679999999999999938e+00, 1.804896102568698812e-01, 1.679999999999999938e+00
-3.517587939698483268e-01, -1.300000000000000044e+00, 1.403308772704471019e-01, 1.300000000000000044e+00
-2.512562814070342654e-01, -9.200000000000000400e-01, 1.001879208994422704e-01, 9.200000000000000400e-01
-1.507537688442202040e-01, -5.400000000000000355e-01, 6.001393481874383456e-02, 5.400000000000000355e-01
-5.025125628140614253e-02, -1.600000000000000033e-01, 1.970478815466647840e-02, 1.600000000000000033e-01
5.025125628140791889e-02, 2.200000000000000011e-01, -2.039189048230196158e-02, -2.200000000000000011e-01
1.507537688442219803e-01, 5.899999999999999689e-01, -6.061163379570810167e-02, -5.899999999999999689e-01
2.512562814070360417e-01, 9.699999999999999734e-01, -1.007298768672980627e-01, -9.699999999999999734e-01
3.517587939698501032e-01, 1.350000000000000089e+00, -1.408649502304915868e-01, -1.350000000000000089e+00
4.522613065326641646e-01, 1.729999999999999982e+00, -1.810373645538069787e-01, -1.729999999999999982e+00
5.527638190954782260e-01, 2.109999999999999876e+00, -2.213465175087219738e-01, -2.109999999999999876e+00
6.532663316582922874e-01, 2.479999999999999982e+00, -2.615147269056550261e-01, -2.479999999999999982e+00
7.537688442211063489e-01, 2.870000000000000107e+00, -3.016966113098678015e-01, -2.870000000000000107e+00
8.542713567839204103e-01, 3.250000000000000000e+00, -3.418138096758962519e-01, -3.250000000000000000e+00
9.547738693467344717e-01, 3.620000000000000107e+00, -3.819804452536743056e-01, -3.620000000000000107e+00
1.055276381909548533e+00, 4.000000000000000000e+00, -4.220834467100673115e-01, -4.000000000000000000e+00
1.155778894472362595e+00, 4.389999999999999680e+00, -4.622784844648119007e-01, -4.389999999999999680e+00
1.256281407035176656e+00, 4.759999999999999787e+00, -5.025876469413331771e-01, -4.759999999999999787e+00
1.356783919597990717e+00, 5.139999999999999680e+00, -5.427542884211630225e-01, -5.139999999999999680e+00
1.457286432160804779e+00, 5.509999999999999787e+00, -5.829535381322468179e-01, -5.509999999999999787e+00
1.557788944723618840e+00, 5.900000000000000355e+00, -6.230381403390996553e-01, -5.900000000000000355e+00
1.658291457286432902e+00, 6.269999999999999574e+00, -6.631511435601332716e-01, -6.269999999999999574e+00
1.758793969849246963e+00, 6.650000000000000355e+00, -7.033993083015559478e-01, -6.650000000000000355e+00
1.859296482412061025e+00, 7.040000000000000036e+00, -7.435344034122618462e-01, -7.040000000000000036e+00
1.959798994974875086e+00, 7.419999999999999929e+00, -7.837646907179527389e-01, -7.419999999999999929e+00
2.060301507537689147e+00, 7.790000000000000036e+00, -8.239834098099945159e-01, -7.790000000000000036e+00
2.160804020100503209e+00, 8.169999999999999929e+00, -8.641816202023004934e-01, -8.169999999999999929e+00
2.261306532663317270e+00, 8.550000000000000711e+00, -9.042315249115528974e-01, -8.550000000000000711e+00
2.361809045226131332e+00, 8.919999999999999929e+00, -9.444917971220679886e-01, -8.919999999999999929e+00
2.462311557788945393e+00, 9.300000000000000711e+00, -9.845969268575244238e-01, -9.300000000000000711e+00
2.562814070351759455e+00, 9.679999999999999716e+00, -1.024853521874084628e+00, -9.679999999999999716e+00
2.663316582914573516e+00, 1.006000000000000050e+01, -1.065016506409888652e+00, -1.006000000000000050e+01
2.763819095477387577e+00, 1.043999999999999950e+01, -1.105111650275366397e+00, -1.043999999999999950e+01
2.864321608040201639e+00, 1.082000000000000028e+01, -1.145243610366110998e+00, -1.082000000000000028e+01
2.964824120603015700e+00, 1.119999999999999929e+01, -1.185572264560754041e+00, -1.119999999999999929e+01
3.065326633165829762e+00, 1.157000000000000028e+01, -1.225752087491062126e+00, -1.157000000000000028e+01
3.165829145728643823e+00, 1.194999999999999929e+01, -1.265868277239872164e+00, -1.194999999999999929e+01
3.266331658291457885e+00, 1.233000000000000007e+01, -1.306019179759845716e+00, -1.233000000000000007e+01
3.366834170854271946e+00, 1.271000000000000085e+01, -1.346131693055548695e+00, -1.271000000000000085e+01
3.467336683417086007e+00, 1.308999999999999986e+01, -1.386330458799357235e+00, -1.308999999999999986e+01
3.567839195979900069e+00, 1.347000000000000064e+01, -1.426658602011400712e+00, -1.347000000000000064e+01
3.668341708542714130e+00, 1.384999999999999964e+01, -1.466829499565258210e+00, -1.384999999999999964e+01
3.768844221105528192e+00, 1.423000000000000043e+01, -1.506885750524660894e+00, -1.423000000000000043e+01
3.869346733668342253e+00, 1.460999999999999943e+01, -1.547118711380714995e+00, -1.460999999999999943e+01
3.969849246231156314e+00, 1.498000000000000043e+01, -1.587188641620683960e+00, -1.498000000000000043e+01
4.070351758793970376e+00, 1.535999999999999943e+01, -1.627449481564569034e+00, -1.535999999999999943e+01
4.170854271356784437e+00, 1.574000000000000021e+01, -1.667768174980159834e+00, -1.574000000000000021e+01
4.271356783919598499e+00, 1.612000000000000099e+01, -1.707854943120599378e+00, -1.612000000000000099e+01
4.371859296482412560e+00, 1.650000000000000000e+01, -1.747875449015321214e+00, -1.650000000000000000e+01
4.472361809045226622e+00, 1.687999999999999901e+01, -1.788048473099867586e+00, -1.687999999999999901e+01
4.572864321608040683e+00, 1.725000000000000000e+01, -1.828289343226897845e+00, -1.725000000000000000e+01
4.673366834170854744e+00, 1.764000000000000057e+01, -1.868539682949252878e+00, -1.764000000000000057e+01
4.773869346733668806e+00, 1.801000000000000156e+01, -1.908715345988515555e+00, -1.801000000000000156e+01
4.874371859296482867e+00, 1.839000000000000057e+01, -1.948883649443046595e+00, -1.839000000000000057e+01
4.974874371859296929e+00, 1.876999999999999957e+01, -1.989003046102303607e+00, -1.876999999999999957e+01
5.075376884422110990e+00, 1.914000000000000057e+01, -2.029198703696515782e+00, -1.914000000000000057e+01
5.175879396984925052e+00, 1.953000000000000114e+01, -2.069389631424479514e+00, -1.953000000000000114e+01
5.276381909547739113e+00, 1.989999999999999858e+01, -2.109608436048779012e+00, -1.989999999999999858e+01
5.376884422110553174e+00, 2.028000000000000114e+01, -2.149782015464709151e+00, -2.028000000000000114e+01
5.477386934673367236e+00, 2.066000000000000014e+01, -2.189883548050212347e+00, -2.066000000000000014e+01
5.577889447236181297e+00, 2.103999999999999915e+01, -2.230122873883517265e+00, -2.103999999999999915e+01
5.678391959798995359e+00, 2.142000000000000171e+01, -2.270320656048454122e+00, -2.142000000000000171e+01
5.778894472361809420e+00, 2.180000000000000071e+01, -2.310435873211062141e+00, -2.180000000000000071e+01
5.879396984924623482e+00, 2.217000000000000171e+01, -2.350562664191288675e+00, -2.217000000000000171e+01
5.979899497487437543e+00, 2.255999999999999872e+01, -2.390853544420460164e+00, -2.255999999999999872e+01
6.080402010050253381e+00, 2.294000000000000128e+01, -2.431001379542343965e+00, -2.294000000000000128e+01
6.180904522613065666e+00, 2.330999999999999872e+01, -2.471194973122726957e+00, -2.330999999999999872e+01
6.281407035175881504e+00, 2.369000000000000128e+01, -2.511282335713421521e+00, -2.369000000000000128e+01
6.381909547738693789e+00, 2.407000000000000028e+01, -2.551386005597817253e+00, -2.407000000000000028e+01
6.482412060301509626e+00, 2.444999999999999929e+01, -2.591564885348708103e+00, -2.444999999999999929e+01
6.582914572864321912e+00, 2.482999999999999829e+01, -2.631794257011944360e+00, -2.482999999999999829e+01
6.683417085427137749e+00, 2.519999999999999929e+01, -2.672073068819881492e+00, -2.519999999999999929e+01
6.783919597989950034e+00, 2.558999999999999986e+01, -2.712265108715500084e+00, -2.558999999999999986e+01
6.884422110552765872e+00, 2.596000000000000085e+01, -2.752367221226294625e+00, -2.596000000000000085e+01
6.984924623115578157e+00, 2.633999999999999986e+01, -2.792439886669404459e+00, -2.633999999999999986e+01
7.085427135678393995e+00, 2.671999999999999886e+01, -2.832642457536714176e+00, -2.671999999999999886e+01
7.185929648241206280e+00, 2.708999999999999986e+01, -2.872935490236808054e+00, -2.708999999999999986e+01
7.286432160804022118e+00, 2.748000000000000043e+01, -2.913081796819899871e+00, -2.748000000000000043e+01
7.386934673366834403e+00, 2.785999999999999943e+01, -2.953204967513001211e+00, -2.785999999999999943e+01
7.487437185929650241e+00, 2.823999999999999844e+01, -2.993310261515265580e+00, -2.823999999999999844e+01
7.587939698492462526e+00, 2.860999999999999943e+01, -3.033482877256962862e+00, -2.860999999999999943e+01
7.688442211055278364e+00, 2.898999999999999844e+01, -3.073689682098129872e+00, -2.898999999999999844e+01
7.788944723618090649e+00, 2.937000000000000099e+01, -3.114034281570171814e+00, -2.937000000000000099e+01
7.889447236180906486e+00, 2.973999999999999844e+01, -3.154099098336853313e+00, -2.973999999999999844e+01
7.989949748743718771e+00, 3.012000000000000099e+01, -3.194203363495443426e+00, -3.012000000000000099e+01
8.090452261306534609e+00, 3.050000000000000000e+01, -3.234441742038808520e+00, -3.050000000000000000e+01
8.190954773869346894e+00, 3.087999999999999901e+01, -3.274605971188630615e+00, -3.087999999999999901e+01
8.291457286432162732e+00, 3.126000000000000156e+01, -3.314738124278972187e+00, -3.126000000000000156e+01
8.391959798994975017e+00, 3.164000000000000057e+01, -3.354951273388332655e+00, -3.164000000000000057e+01
8.492462311557790855e+00, 3.202000000000000313e+01, -3.395087643631807595e+00, -3.202000000000000313e+01
8.592964824120603140e+00, 3.239999999999999858e+01, -3.435179315941656597e+00, -3.239999999999999858e+01
8.693467336683418978e+00, 3.277000000000000313e+01, -3.475469789768551365e+00, -3.277000000000000313e+01
8.793969849246231263e+00, 3.314999999999999858e+01, -3.515635100523613499e+00, -3.314999999999999858e+01
8.894472361809047101e+00, 3.353000000000000114e+01, -3.555776224234008520e+00, -3.353000000000000114e+01
