# Voltage (V), Field (mT), Current (A), Field (mT)
-1.000000000000000000e+01, -3.370000000000000000e+02, 3.997368192390611696e+00, 3.370000000000000000e+02
-9.899497487437185939e+00, -3.358999999999999773e+02, 3.957180390485437904e+00, 3.358999999999999773e+02
-9.798994974874371877e+00, -3.346999999999999886e+02, 3.917099353090038427e+00, 3.346999999999999886e+02
-9.698492462311557816e+00, -3.336000000000000227e+02, 3.876845293361978584e+00, 3.336000000000000227e+02
-9.597989949748743754e+00, -3.325000000000000000e+02, 3.836578089437906680e+00, 3.325000000000000000e+02
-9.497487437185929693e+00, -3.313999999999999773e+02, 3.796431323652122103e+00, 3.313999999999999773e+02
-9.396984924623115631e+00, -3.301999999999999886e+02, 3.756249851049509925e+00, 3.301999999999999886e+02
-9.296482412060301570e+00, -3.291000000000000227e+02, 3.716155157906808171e+00, 3.291000000000000227e+02
-9.195979899497487509e+00, -3.279000000000000341e+02, 3.675930567280945027e+00, 3.279000000000000341e+02
-9.095477386934673447e+00, -3.266999999999999886e+02, 3.635593960257055279e+00, 3.266999999999999886e+02
-8.994974874371859386e+00, -3.254000000000000341e+02, 3.595515580729985672e+00, 3.254000000000000341e+02
-8.894472361809045324e+00, -3.241999999999999886e+02, 3.555367783786641311e+00, 3.241999999999999886e+02
-8.793969849246231263e+00, -3.230000000000000000e+02, 3.515161613602280521e+00, 3.230000000000000000e+02
-8.693467336683417201e+00, -3.216999999999999886e+02, 3.475025919201590430e+00, 3.216999999999999886e+02
-8.592964824120603140e+00, -3.205000000000000000e+02, 3.434808711234583978e+00, 3.205000000000000000e+02
-8.492462311557789079e+00, -3.191999999999999886e+02, 3.394575728977763163e+00, 3.191999999999999886e+02
-8.391959798994975017e+00, -3.179000000000000341e+02, 3.354539967719441407e+00, 3.179000000000000341e+02
-8.291457286432160956e+00, -3.165000000000000000e+02, 3.314266496189747002e+00, 3.165000000000000000e+02
-8.190954773869346894e+00, -3.151999999999999886e+02, 3.274043515443242569e+00, 3.151999999999999886e+02
-8.090452261306532833e+00, -3.139000000000000341e+02, 3.233978311934858851e+00, 3.139000000000000341e+02
-7.989949748743718771e+00, -3.125000000000000000e+02, 3.193777425432775541e+00, 3.125000000000000000e+02
-7.889447236180904710e+00, -3.110999999999999659e+02, 3.153511328422447413e+00, 3.110999999999999659e+02
-7.788944723618090649e+00, -3.095999999999999659e+02, 3.113377238684708725e+00, 3.095999999999999659e+02
-7.688442211055276587e+00, -3.081999999999999886e+02, 3.073165842317560958e+00, 3.081999999999999886e+02
-7.587939698492462526e+00, -3.068000000000000114e+02, 3.033088556758265053e+00, 3.068000000000000114e+02
-7.487437185929648464e+00, -3.052000000000000455e+02, 2.992888209952970335e+00, 3.052000000000000455e+02
-7.386934673366834403e+00, -3.035999999999999659e+02, 2.952704695011274971e+00, 3.035999999999999659e+02
-7.286432160804020342e+00, -3.020000000000000000e+02, 2.912470168975871410e+00, 3.020000000000000000e+02
-7.185929648241206280e+00, -3.003999999999999773e+02, 2.872308221591159505e+00, 3.003999999999999773e+02
-7.085427135678392219e+00, -2.987000000000000455e+02, 2.832216749140101797e+00, 2.987000000000000455e+02
-6.984924623115578157e+00, -2.968999999999999773e+02, 2.792016414920611034e+00, 2.968999999999999773e+02
-6.884422110552764096e+00, -2.950999999999999659e+02, 2.751841852856190762e+00, 2.950999999999999659e+02
-6.783919597989950034e+00, -2.931000000000000227e+02, 2.711586828297936069e+00, 2.931000000000000227e+02
-6.683417085427135973e+00, -2.908000000000000114e+02, 2.671413322666637225e+00, 2.908000000000000114e+02
-6.582914572864321912e+00, -2.883000000000000114e+02, 2.631345002021209467e+00, 2.883000000000000114e+02
-6.482412060301507850e+00, -2.858000000000000114e+02, 2.591181493155099158e+00, 2.858000000000000114e+02
-6.381909547738693789e+00, -2.831000000000000227e+02, 2.550953824945957571e+00, 2.831000000000000227e+02
-6.281407035175879727e+00, -2.801999999999999886e+02, 2.510832393395872497e+00, 2.801999999999999886e+02
-6.180904522613065666e+00, -2.771999999999999886e+02, 2.470657320683029123e+00, 2.771999999999999886e+02
-6.080402010050251604e+00, -2.741000000000000227e+02, 2.430428080854066586e+00, 2.741000000000000227e+02
-5.979899497487436655e+00, -2.710000000000000000e+02, 2.390183591477281322e+00, 2.710000000000000000e+02
-5.879396984924622593e+00, -2.677999999999999545e+02, 2.350011680078333054e+00, 2.677999999999999545e+02
-5.778894472361808532e+00, -2.645000000000000000e+02, 2.309905509722772532e+00, 2.645000000000000000e+02
-5.678391959798994471e+00, -2.610000000000000000e+02, 2.269775675049833019e+00, 2.610000000000000000e+02
-5.577889447236180409e+00, -2.575000000000000000e+02, 2.229667404578774104e+00, 2.575000000000000000e+02
-5.477386934673366348e+00, -2.540000000000000000e+02, 2.189259891018092485e+00, 2.540000000000000000e+02
-5.376884422110552286e+00, -2.504000000000000057e+02, 2.149095351163592404e+00, 2.504000000000000057e+02
-5.276381909547738225e+00, -2.467999999999999829e+02, 2.108962893637234437e+00, 2.467999999999999829e+02
-5.175879396984924163e+00, -2.430000000000000000e+02, 2.068869881175877889e+00, 2.430000000000000000e+02
-5.075376884422110102e+00, -2.390999999999999943e+02, 2.028691672244961275e+00, 2.390999999999999943e+02
-4.974874371859296041e+00, -2.353000000000000114e+02, 1.988548700976932260e+00, 2.353000000000000114e+02
-4.874371859296481979e+00, -2.314000000000000057e+02, 1.948269519554752804e+00, 2.314000000000000057e+02
-4.773869346733667918e+00, -2.273999999999999773e+02, 1.908101833143462489e+00, 2.273999999999999773e+02
-4.673366834170853856e+00, -2.233000000000000114e+02, 1.867927311178815941e+00, 2.233000000000000114e+02
-4.572864321608039795e+00, -2.190999999999999943e+02, 1.827739642653612329e+00, 2.190999999999999943e+02
-4.472361809045225733e+00, -2.150000000000000000e+02, 1.787501487675191569e+00, 2.150000000000000000e+02
-4.371859296482411672e+00, -2.106999999999999886e+02, 1.747440040749783208e+00, 2.106999999999999886e+02
-4.271356783919597611e+00, -2.063000000000000114e+02, 1.707304967086334280e+00, 2.063000000000000114e+02
-4.170854271356783549e+00, -2.018000000000000114e+02, 1.667037364355778095e+00, 2.018000000000000114e+02
-4.070351758793969488e+00, -1.973000000000000114e+02, 1.626788695541649066e+00, 1.973000000000000114e+02
-3.969849246231155426e+00, -1.927000000000000171e+02, 1.586757229891754051e+00, 1.927000000000000171e+02
-3.869346733668341365e+00, -1.882000000000000171e+02, 1.546554843369546184e+00, 1.882000000000000171e+02
-3.768844221105527303e+00, -1.835000000000000000e+02, 1.506481832394346299e+00, 1.835000000000000000e+02
-3.668341708542713242e+00, -1.787999999999999829e+02, 1.466096429804386592e+00, 1.787999999999999829e+02
-3.567839195979899181e+00, -1.740999999999999943e+02, 1.425967147751622699e+00, 1.740999999999999943e+02
-3.467336683417085119e+00, -1.694000000000000057e+02, 1.385793689735456136e+00, 1.694000000000000057e+02
-3.366834170854271058e+00, -1.645999999999999943e+02, 1.345675453303954550e+00, 1.645999999999999943e+02
-3.266331658291456996e+00, -1.598999999999999773e+02, 1.305462027235906319e+00, 1.598999999999999773e+02
-3.165829145728642935e+00, -1.550999999999999943e+02, 1.265339584752548818e+00, 1.550999999999999943e+02
-3.065326633165828873e+00, -1.504000000000000057e+02, 1.225116167495244213e+00, 1.504000000000000057e+02
-2.964824120603014812e+00, -1.455000000000000000e+02, 1.184923253710977731e+00, 1.455000000000000000e+02
-2.864321608040200751e+00, -1.406999999999999886e+02, 1.144731392213955923e+00, 1.406999999999999886e+02
-2.763819095477386689e+00, -1.359000000000000057e+02, 1.104546893914121197e+00, 1.359000000000000057e+02
-2.663316582914572628e+00, -1.310000000000000000e+02, 1.064355559108425497e+00, 1.310000000000000000e+02
-2.562814070351758566e+00, -1.262000000000000028e+02, 1.024320946737202087e+00, 1.262000000000000028e+02
-2.462311557788944505e+00, -1.212000000000000028e+02, 9.839471206572860673e-01, 1.212000000000000028e+02
-2.361809045226130443e+00, -1.164000000000000057e+02, 9.438367772836031566e-01, 1.164000000000000057e+02
-2.261306532663316382e+00, -1.114000000000000057e+02, 9.035896966674745734e-01, 1.114000000000000057e+02
-2.160804020100502321e+00, -1.067000000000000028e+02, 8.635366781246915924e-01, 1.067000000000000028e+02
-2.060301507537688259e+00, -1.017000000000000028e+02, 8.234468457401924457e-01, 1.017000000000000028e+02
-1.959798994974873310e+00, -9.679999999999999716e+01, 7.832029208375749230e-01, 9.679999999999999716e+01
-1.859296482412059248e+00, -9.189999999999999147e+01, 7.429148192141663554e-01, 9.189999999999999147e+01
-1.758793969849245187e+00, -8.690000000000000568e+01, 7.028192017330807673e-01, 8.690000000000000568e+01
-1.658291457286431125e+00, -8.200000000000000000e+01, 6.626683632599376095e-01, 8.200000000000000000e+01
-1.557788944723617064e+00, -7.700000000000000000e+01, 6.225548644592375780e-01, 7.700000000000000000e+01
-1.457286432160803002e+00, -7.209999999999999432e+01, 5.823414419533999853e-01, 7.209999999999999432e+01
-1.356783919597988941e+00, -6.710000000000000853e+01, 5.421338042354014730e-01, 6.710000000000000853e+01
-1.256281407035174880e+00, -6.219999999999999574e+01, 5.018457015005656219e-01, 6.219999999999999574e+01
-1.155778894472360818e+00, -5.720000000000000284e+01, 4.617516603665137165e-01, 5.720000000000000284e+01
-1.055276381909546757e+00, -5.229999999999999716e+01, 4.216276417840813528e-01, 5.229999999999999716e+01
-9.547738693467326954e-01, -4.730000000000000426e+01, 3.814520832648111703e-01, 4.730000000000000426e+01
-8.542713567839186339e-01, -4.239999999999999858e+01, 3.412092073638388623e-01, 4.239999999999999858e+01
-7.537688442211045725e-01, -3.740000000000000568e+01, 3.010068262329601563e-01, 3.740000000000000568e+01
-6.532663316582905111e-01, -3.250000000000000000e+01, 2.608018149443641076e-01, 3.250000000000000000e+01
-5.527638190954764497e-01, -2.750000000000000000e+01, 2.207430068854460137e-01, 2.750000000000000000e+01
-4.522613065326623882e-01, -2.239999999999999858e+01, 1.804554258983068760e-01, 2.239999999999999858e+01
-3.517587939698483268e-01, -1.750000000000000000e+01, 1.403345586629781705e-01, 1.750000000000000000e+01
-2.512562814070342654e-01, -1.259999999999999964e+01, 1.001174485267432579e-01, 1.259999999999999964e+01
-1.507537688442202040e-01, -7.599999999999999645e+00, 6.002708264974927765e-02, 7.599999999999999645e+00
-5.025125628140614253e-02, -2.600000000000000089e+00, 1.982574820264825649e-02, 2.600000000000000089e+00
5.025125628140791889e-02, 2.299999999999999822e+00, -2.043291171693661923e-02, -2.299999999999999822e+00
1.507537688442219803e-01, 7.299999999999999822e+00, -6.072312741056210689e-02, -7.299999999999999822e+00
2.512562814070360417e-01, 1.240000000000000036e+01, -1.007903568957945750e-01, -1.240000000000000036e+01
3.517587939698501032e-01, 1.719999999999999929e+01, -1.408702093635460784e-01, -1.719999999999999929e+01
4.522613065326641646e-01, 2.219999999999999929e+01, -1.809926619215694865e-01, -2.219999999999999929e+01
5.527638190954782260e-01, 2.730000000000000071e+01, -2.213344215019901196e-01, -2.730000000000000071e+01
6.532663316582922874e-01, 3.220000000000000284e+01, -2.615652145874730605e-01, -3.220000000000000284e+01
7.537688442211063489e-01, 3.710000000000000142e+01, -3.016792561686875707e-01, -3.710000000000000142e+01
8.542713567839204103e-01, 4.200000000000000000e+01, -3.418437867389243490e-01, -4.200000000000000000e+01
9.547738693467344717e-01, 4.700000000000000000e+01, -3.819646678515357663e-01, -4.700000000000000000e+01
1.055276381909548533e+00, 5.200000000000000000e+01, -4.221086905543786627e-01, -5.200000000000000000e+01
1.155778894472362595e+00, 5.689999999999999858e+01, -4.624935830628158495e-01, -5.689999999999999858e+01
1.256281407035176656e+00, 6.180000000000000426e+01, -5.026128907875357932e-01, -6.180000000000000426e+01
1.356783919597990717e+00, 6.679999999999999716e+01, -5.427027488998227289e-01, -6.679999999999999716e+01
1.457286432160804779e+00, 7.170000000000000284e+01, -5.829246128895063661e-01, -7.170000000000000284e+01
1.557788944723618840e+00, 7.659999999999999432e+01, -6.230828429888138897e-01, -7.659999999999999432e+01
1.658291457286432902e+00, 8.150000000000000000e+01, -6.631716541885230853e-01, -8.150000000000000000e+01
1.758793969849246963e+00, 8.640000000000000568e+01, -7.034671511522859744e-01, -8.640000000000000568e+01
1.859296482412061025e+00, 9.130000000000001137e+01, -7.435712173639323908e-01, -9.130000000000001137e+01
1.959798994974875086e+00, 9.619999999999998863e+01, -7.837841495218770271e-01, -9.619999999999998863e+01
2.060301507537689147e+00, 1.010999999999999943e+02, -8.239187224317208180e-01, -1.010999999999999943e+02
2.160804020100503209e+00, 1.060000000000000000e+02, -8.640937926193962282e-01, -1.060000000000000000e+02
2.261306532663317270e+00, 1.109000000000000057e+02, -9.042962122961860638e-01, -1.109000000000000057e+02
2.361809045226131332e+00, 1.157999999999999972e+02, -9.445186187219424268e-01, -1.157999999999999972e+02
2.462311557788945393e+00, 1.207000000000000028e+02, -9.847126278826373591e-01, -1.207000000000000028e+02
2.562814070351759455e+00, 1.255000000000000000e+02, -1.024873506597669737e+00, -1.255000000000000000e+02
2.663316582914573516e+00, 1.303999999999999773e+02, -1.065038068875993948e+00, -1.303999999999999773e+02
2.763819095477387577e+00, 1.351999999999999886e+02, -1.105215781215016957e+00, -1.351999999999999886e+02
2.864321608040201639e+00, 1.400000000000000000e+02, -1.145381925713003790e+00, -1.400000000000000000e+02
2.964824120603015700e+00, 1.449000000000000057e+02, -1.185568583163473688e+00, -1.449000000000000057e+02
3.065326633165829762e+00, 1.496999999999999886e+02, -1.225753665232848899e+00, -1.496999999999999886e+02
3.165829145728643823e+00, 1.545999999999999943e+02, -1.265957682613096491e+00, -1.545999999999999943e+02
3.266331658291457885e+00, 1.593000000000000114e+02, -1.306050208685411551e+00, -1.593000000000000114e+02
3.366834170854271946e+00, 1.640999999999999943e+02, -1.346214261557565184e+00, -1.640999999999999943e+02
3.467336683417086007e+00, 1.688000000000000114e+02, -1.386416182791018636e+00, -1.688000000000000114e+02
3.567839195979900069e+00, 1.736999999999999886e+02, -1.426647031901337570e+00, -1.736999999999999886e+02
3.668341708542714130e+00, 1.782999999999999829e+02, -1.466867891296662840e+00, -1.782999999999999829e+02
3.768844221105528192e+00, 1.830000000000000000e+02, -1.506954645280173644e+00, -1.830000000000000000e+02
3.869346733668342253e+00, 1.877000000000000171e+02, -1.547161836345151364e+00, -1.877000000000000171e+02
3.969849246231156314e+00, 1.923000000000000114e+02, -1.587303816838634196e+00, -1.923000000000000114e+02
4.070351758793970376e+00, 1.968000000000000114e+02, -1.627490502877996015e+00, -1.968000000000000114e+02
4.170854271356784437e+00, 2.014000000000000057e+02, -1.667740301521577040e+00, -2.014000000000000057e+02
4.271356783919598499e+00, 2.058000000000000114e+02, -1.707797092541935458e+00, -2.058000000000000114e+02
4.371859296482412560e+00, 2.101999999999999886e+02, -1.748006927613017680e+00, -2.101999999999999886e+02
4.472361809045226622e+00, 2.145000000000000000e+02, -1.788193099568321731e+00, -2.145000000000000000e+02
4.572864321608040683e+00, 2.187000000000000171e+02, -1.828338779187196783e+00, -2.187000000000000171e+02
4.673366834170854744e+00, 2.230000000000000000e+02, -1.868485513754459593e+00, -2.230000000000000000e+02
4.773869346733668806e+00, 2.270000000000000000e+02, -1.908810536522873136e+00, -2.270000000000000000e+02
4.874371859296482867e+00, 2.310000000000000000e+02, -1.948889434503620954e+00, -2.310000000000000000e+02
4.974874371859296929e+00, 2.350000000000000000e+02, -1.989087718359322965e+00, -2.350000000000000000e+02
5.075376884422110990e+00, 2.388000000000000114e+02, -2.029342804319847815e+00, -2.388000000000000114e+02
5.175879396984925052e+00, 2.426000000000000227e+02, -2.069407512525234250e+00, -2.426000000000000227e+02
5.276381909547739113e+00, 2.464000000000000057e+02, -2.109532178406703373e+00, -2.464000000000000057e+02
5.376884422110553174e+00, 2.500999999999999943e+02, -2.149772023083158512e+00, -2.500999999999999943e+02
5.477386934673367236e+00, 2.536999999999999886e+02, -2.190062885019107952e+00, -2.536999999999999886e+02
5.577889447236181297e+00, 2.572999999999999545e+02, -2.230323773379801811e+00, -2.572999999999999545e+02
5.678391959798995359e+00, 2.606999999999999886e+02, -2.270344322221598876e+00, -2.606999999999999886e+02
5.778894472361809420e+00, 2.641999999999999886e+02, -2.310483731476716596e+00, -2.641999999999999886e+02
5.879396984924623482e+00, 2.675000000000000000e+02, -2.350647862430330193e+00, -2.675000000000000000e+02
5.979899497487437543e+00, 2.708000000000000114e+02, -2.390977660385312564e+00, -2.708000000000000114e+02
6.080402010050253381e+00, 2.740000000000000000e+02, -2.431144954379726109e+00, -2.740000000000000000e+02
6.180904522613065666e+00, 2.771000000000000227e+02, -2.471253349710577751e+00, -2.771000000000000227e+02
6.281407035175881504e+00, 2.800000000000000000e+02, -2.511421703256518256e+00, -2.800000000000000000e+02
6.381909547738693789e+00, 2.828999999999999773e+02, -2.551508543864752010e+00, -2.828999999999999773e+02
6.482412060301509626e+00, 2.856999999999999886e+02, -2.591662179690525480e+00, -2.856999999999999886e+02
6.582914572864321912e+00, 2.883000000000000114e+02, -2.631922054457636495e+00, -2.883000000000000114e+02
6.683417085427137749e+00, 2.908000000000000114e+02, -2.672059920933179011e+00, -2.908000000000000114e+02
6.783919597989950034e+00, 2.928999999999999773e+02, -2.712246701672211824e+00, -2.928999999999999773e+02
6.884422110552765872e+00, 2.950000000000000000e+02, -2.752422442361929456e+00, -2.950000000000000000e+02
6.984924623115578157e+00, 2.968999999999999773e+02, -2.792625008972204004e+00, -2.968999999999999773e+02
7.085427135678393995e+00, 2.987000000000000455e+02, -2.832686634454603780e+00, -2.987000000000000455e+02
7.185929648241206280e+00, 3.003999999999999773e+02, -2.872999651957845568e+00, -3.003999999999999773e+02
7.286432160804022118e+00, 3.020000000000000000e+02, -2.913142277137303893e+00, -3.020000000000000000e+02
7.386934673366834403e+00, 3.035999999999999659e+02, -2.953433740912842165e+00, -3.035999999999999659e+02
7.487437185929650241e+00, 3.052000000000000455e+02, -2.993479080525693448e+00, -3.052000000000000455e+02
7.587939698492462526e+00, 3.066999999999999886e+02, -3.033600156520410263e+00, -3.066999999999999886e+02
7.688442211055278364e+00, 3.081999999999999886e+02, -3.073792761641909621e+00, -3.081999999999999886e+02
7.788944723618090649e+00, 3.095999999999999659e+02, -3.114039014815074946e+00, -3.095999999999999659e+02
7.889447236180906486e+00, 3.110999999999999659e+02, -3.154274754334822184e+00, -3.110999999999999659e+02
7.989949748743718771e+00, 3.125000000000000000e+02, -3.194392167419621842e+00, -3.125000000000000000e+02
8.090452261306534609e+00, 3.139000000000000341e+02, -3.234438586541088512e+00, -3.139000000000000341e+02
8.190954773869346894e+00, 3.151999999999999886e+02, -3.274703791629537619e+00, -3.151999999999999886e+02
8.291457286432162732e+00, 3.165999999999999659e+02, -3.314843833477898905e+00, -3.165999999999999659e+02
8.391959798994975017e+00, 3.179000000000000341e+02, -3.355060664015556693e+00, -3.179000000000000341e+02
8.492462311557790855e+00, 3.191999999999999886e+02, -3.395152857283003645e+00, -3.191999999999999886e+02
8.592964824120603140e+00, 3.205000000000000000e+02, -3.435293965762079793e+00, -3.205000000000000000e+02
8.693467336683418978e+00, 3.217999999999999545e+02, -3.475573395353289019e+00, -3.217999999999999545e+02
8.793969849246231263e+00, 3.230000000000000000e+02, -3.515731343287152644e+00, -3.230000000000000000e+02
8.894472361809047101e+00, 3.242999999999999545e+02, -3.555889296347761963e+00, -3.242999999999999545e+02
